time,theta,omega,tau
0.0,0.0,0.0,1.6875389974302379e-15
0.004166666666666667,4.5777377375730966e-20,1.0986570570175432e-17,0.0004086707305960301
0.008333333333333333,1.1085891517501379e-08,2.6606139641893443e-06,0.00079547234205333
0.0125,4.375032886387326e-08,7.839464963129253e-06,0.0011629043629289894
0.016666666666666666,1.0796053312570575e-07,1.5410449022839798e-05,0.0015131866180872018
0.020833333333333332,2.132185087051593e-07,2.5261914139068852e-05,0.0018482902189050348
0.025,3.686145130824842e-07,3.7295041050557974e-05,0.002169965126789806
0.029166666666666667,5.828745275078728e-07,5.142240346209326e-05,0.0024797646687567186
0.03333333333333333,8.644023936496028e-07,6.756668787401522e-05,0.0027790673419547237
0.0375,1.221317207683475e-06,8.565955536812931e-05,0.003069096206795733
0.041666666666666664,1.6614864978952945e-06,0.00010564062965083665,0.0033509361352243917
0.04583333333333333,2.1925556536851725e-06,0.00012745659738957072,0.003625549151207793
0.05,2.821974022110631e-06,0.00015106040842210997,0.0038937880743223625
0.05416666666666667,3.5570180420741027e-06,0.00017641056479123329,0.004156408654008721
0.058333333333333334,4.404811745317221e-06,0.0002034704887783484,0.004414080361334808
0.0625,5.372344916966894e-06,0.00023220796119592145,0.004667395986667971
0.06666666666666667,6.466489175986419e-06,0.0002625946221646859,0.004916880175255263
0.07083333333333333,7.694012207073827e-06,0.00029460552746097765,0.0051629970181221755
0.075,9.061590349923547e-06,0.00032821875428393264,0.0054061568027235305
0.07916666666666666,1.057581972897433e-05,0.00036341505097218824,0.005646722016237818
0.08333333333333333,1.2243226086493046e-05,0.0004001775258044919,0.00588501268412957
0.0875,1.4070273463811958e-05,0.00043849137055653885,0.00612131111747213
0.09166666666666666,1.6063371859498738e-05,0.0004783436149648268,0.006355866134400579
0.09583333333333333,1.822888397897332e-05,0.0005197229086738996,0.0065888968138392385
0.1,2.0573131177397884e-05,0.0005626193276218957,0.006820595833221804
0.10416666666666667,2.310239868638131e-05,0.0006070242021560226,0.007051132436205703
0.10833333333333334,2.5822940205002427e-05,0.0006529299644690677,0.0072806550712978604
0.1125,2.8740981926729284e-05,0.0007003300132144457,0.007509293737786215
0.11666666666666667,3.186272606587187e-05,0.0007492185933942203,0.0077371620713488215
0.12083333333333333,3.519435394014394e-05,0.0007995906898252971,0.00796435919813411
0.125,3.8742028659629096e-05,0.0008514419326764381,0.00819097138292305
0.12916666666666665,4.2511897466860295e-05,0.0009047685137354881,0.008417073494153153
0.13333333333333333,4.651009376775407e-05,0.0009595671122145076,0.008642730306066224
0.1375,5.0742738888722495e-05,0.0010158348290324212,0.0088679976560017
0.14166666666666666,5.521594359135633e-05,0.0010735691286321203,0.009092923472865678
0.14583333333333334,5.9935809372578495e-05,0.00113276778749332,0.009317548691033267
0.15,6.49084295750589e-05,0.0011934288485952957,0.00954190806236573
0.15416666666666667,7.0139890329918e-05,0.0012555505811661844,0.009766030877622444
0.15833333333333333,7.563627135128872e-05,0.0013191314451289722,0.009989941607299766
0.1625,8.140364660012042e-05,0.0013841700597196065,0.0102136604708207
0.16666666666666666,8.744808483266527e-05,0.0014506651758107662,0.010437203942011631
0.17083333333333334,9.377565004735899e-05,0.0015186156515264921,0.010660585197925988
0.175,0.00010039240184227084,0.0015880204307788443,0.010883814517292704
0.17916666666666667,0.00010730439569393176,0.0016588785243986212,0.011106899634174782
0.18333333333333332,0.00011451768316713402,0.0017311889935685413,0.011329846051803882
0.1875,0.00012203831206421575,0.0018049509352996169,0.01155265732100919
0.19166666666666665,0.00012987232652138332,0.0018801634697202137,0.011775335287169085
0.19583333333333333,0.00013802576705877027,0.0019568257289728675,0.011997880309180187
0.2,0.0001465046705901731,0.0020349368475366773,0.012220291453551583
0.20416666666666666,0.00015531507039772866,0.002114495953813335,0.012442566666388237
0.20833333333333334,0.0001644629960761988,0.002195502162832832,0.012664702925722039
0.2125,0.00017395447345099427,0.0022779545699509107,0.012886696376376235
0.21666666666666667,0.00018379552447359647,0.0023618522454245316,0.013108542449308206
0.22083333333333333,0.00019399216709761445,0.002447194229764315,0.01333023596715908
0.225,0.00020455041513834008,0.0025339795297741525,0.013551771237548308
0.22916666666666666,0.0002154762781183326,0.002622207115198206,0.01377314213548048
0.23333333333333334,0.00022677576110126762,0.0027118759159044064,0.013994342176080657
0.2375,0.00023845486451602382,0.0028029848195414903,0.01421536457873903
0.24166666666666667,0.0002505195839727473,0.0028955326696136455,0.014436202323627387
0.24583333333333332,0.0002629759100724269,0.0029895182639231004,0.01465684820144159
0.25,0.0002758298282113292,0.0030849403533365592,0.014877294857130866
0.25416666666666665,0.0002890873183814806,0.0031817976408363303,0.015097534828289598
0.2583333333333333,0.00030275435496823647,0.003280088780821403,0.015317560578812985
0.2625,0.0003168369065458516,0.003379812378627636,0.015537364528350745
0.26666666666666666,0.00033134093567185034,0.003480966990239699,0.015756939078033532
0.2708333333333333,0.00034627239868089413,0.0035835511221705093,0.015976276632895487
0.275,0.00036163724547875516,0.003687563231486642,0.016195369621367108
0.2791666666666667,0.0003774414193369245,0.003793001725960652,0.016414210512172712
0.2833333333333333,0.0003936908566883137,0.0038998649643334033,0.016632791828929572
0.2875,0.0004103914869244447,0.0040081512566714425,0.01685110616271124
0.2916666666666667,0.0004275492321944704,0.004117858864806169,0.017069146182810285
0.29583333333333334,0.00044517000720631654,0.004228986002843071,0.017286904645907864
0.3,0.0004632597190301943,0.004341530837730664,0.017504374403836186
0.30416666666666664,0.00048182426690469415,0.00445549148987996,0.01772154841009652
0.30833333333333335,0.0005008695420456374,0.004570866033826376,0.017938419725280635
0.3125,0.0005204014274578329,0.004687652498926938,0.01815498152152316
0.31666666666666665,0.0005404257977498599,0.004805848870086467,0.01837122708610261
0.3208333333333333,0.0005609485189519733,0.00492545308850722,0.018587149824290626
0.325,0.0005819754483372111,0.005046463052457067,0.018802743261542132
0.32916666666666666,0.0006035124342457608,0.005168876618051934,0.019018001045105766
0.3333333333333333,0.0006255653159126306,0.005292691600048735,0.01923291694512725
0.3375,0.0006481399232986534,0.005417905772645478,0.01944748485530781
0.3416666666666667,0.0006712420769248436,0.0055445168702856614,0.019661698793174393
0.3458333333333333,0.0006948775877101121,0.0056725225884644345,0.019875552900012392
0.35,0.0007190522568123384,0.005801920584534311,0.02008904144050369
0.3541666666666667,0.0007437718754727907,0.005932708478508534,0.020302158802110046
0.35833333333333334,0.0007690422248638757,0.006064883853860422,0.02051489949423619
0.3625,0.0007948690759401976,0.006198444258317267,0.02072725814720375
0.36666666666666664,0.0008212581892928958,0.006333387204647555,0.02093922951106284
0.37083333333333335,0.000848215315007231,0.006469710171440447,0.021150808454265105
0.375,0.0008757461925233836,0.006607410603876618,0.021361989962219816
0.37916666666666665,0.000903856550500424,0.006746485914489704,0.02157276913575242
0.3833333333333333,0.0009325521066834144,0.006886933483917708,0.02178314118948029
0.3875,0.000961838567773597,0.007028750661643827,0.02199310145012248
0.39166666666666666,0.0009917216293016233,0.007171934766726285,0.022202645354754195
0.3958333333333333,0.0010222069755037766,0.0073164830885167976,0.022411768449019803
0.4,0.0010533002792011408,0.0074623928873673966,0.02262046638531142
0.4041666666666667,0.0010850072016816634,0.007609661395325405,0.022828734920924076
0.4083333333333333,0.001117333392585065,0.007758285816816399,0.023036569916194745
0.4125,0.0011502844897905444,0.00790826332931505,0.023243967332630424
0.4166666666666667,0.0011838661193072269,0.008059591084003784,0.023450923231033732
0.42083333333333334,0.001218083895167307,0.00821226620641924,0.023657433769627693
0.425,0.0012529434193218343,0.008366285797086514,0.023863495202188098
0.42916666666666664,0.0012884502815390894,0.008521646932141243,0.024069103876184543
0.43333333333333335,0.0013246100593055045,0.0086783466639396,0.024274256230933114
0.4375,0.001361428317729072,0.00883638202165624,0.0244789487957663
0.44166666666666665,0.0013989106094451985,0.008995750011870354,0.024683178188220106
0.4458333333333333,0.001437062474524948,0.009156447619139904,0.024886941112241368
0.45,0.0014758894403856322,0.009318471806564197,0.02509023435641723
0.45416666666666666,0.0015153970217036943,0.009481819516334925,0.02529305479222711
0.4583333333333333,0.0015555907203298437,0.009646487670275827,0.025495399372320815
0.46249999999999997,0.00159647602520639,0.009812473170371145,0.025697265128820757
0.4666666666666667,0.001638058412286736,0.009979772899283021,0.025898649171651123
0.4708333333333333,0.0016803433444569776,0.01014838372085802,0.026099548686894413
0.475,0.0017233362714595734,0.010318302480622947,0.026299960935175448
0.4791666666666667,0.0017670426298190323,0.010489526006270157,0.026499883250072916
0.48333333333333334,0.0018114678427695844,0.010662051108132505,0.02669931303655882
0.4875,0.001856617320184785,0.010835874579648153,0.026898247769467906
0.49166666666666664,0.0019024964585090157,0.0110109931978154,0.027096684991993226
0.49583333333333335,0.0019491106406908396,0.011187403723637725,0.027294622314211602
0.5,0.0019964652361181695,0.011365102902559229,0.02749205741163648
0.5041666666666667,0.002044565600555214,0.011544087464890652,0.027688988023799647
0.5083333333333333,0.0020934170760811563,0.011724354126226159,0.027885411952861032
0.5125,0.0021430249910305357,0.011905899587851076,0.028081327062244112
0.5166666666666666,0.0021933946599352887,0.012088720537140739,0.02827673127530191
0.5208333333333334,0.0022445313834684164,0.012272813647950662,0.02847162257400787
0.525,0.0022964404483892423,0.012458175580998179,0.028665998997673314
0.5291666666666667,0.0023491271274902244,0.012644802984235736,0.028859858641693898
0.5333333333333333,0.002402596679545291,0.012832692493216025,0.029053199656318886
0.5375,0.0024568543492596625,0.013021840731449102,0.029246020245448253
0.5416666666666666,0.0025119053672211277,0.013212244310751678,0.02943831866545427
0.5458333333333333,0.0025677549498527475,0.013403899831588729,0.029630093224027695
0.55,0.0026244082993669457,0.013596803883407605,0.029821342279049666
0.5541666666666667,0.002681870603720966,0.013790953044964792,0.030012064237484596
0.5583333333333333,0.002740147036573655,0.013986343884645458,0.030202257554301646
0.5625,0.002799242757243555,0.014182972960775989,0.030391920731414192
0.5666666666666667,0.002859162910668262,0.01438083682192961,0.03058105231664532
0.5708333333333333,0.002919912627365034,0.014579932007225285,0.030769650902714107
0.575,0.0029814970233926173,0.014780255046619997,0.030957715126244126
0.5791666666666666,0.0030439212003142615,0.014981802461194592,0.03114524366679421
0.5833333333333334,0.0031071902451619005,0.015184570763433302,0.03133223524590903
0.5875,0.0031713092304014715,0.015388556457497092,0.03151868862619016
0.5916666666666667,0.0032362832138993504,0.015593756039490952,0.03170460261038925
0.5958333333333333,0.0033021172388898725,0.0158001659977253,0.031889976040518825
0.6,0.003368816333943921,0.016007782812971577,0.032074807796983434
0.6041666666666666,0.003436385512938555,0.016216602958712203,0.03225909679772926
0.6083333333333333,0.0035048297750276593,0.01642662290138498,0.032442841997413686
0.6125,0.0035741541046135847,0.0166378391006221,0.03262604238659109
0.6166666666666667,0.0036443634713197674,0.016850248009483853,0.03280869699091697
0.6208333333333333,0.003715462829964297,0.01706384607468715,0.03299080487037166
0.625,0.0037874571205344177,0.017278629736828983,0.03317236511849772
0.6291666666666667,0.003860351268161938,0.01749459543060494,0.0333533768616562
0.6333333333333333,0.003934150183099533,0.017711739585022854,0.033533839258299156
0.6375,0.004008858760697915,0.01793005862361174,0.03371375149825714
0.6416666666666666,0.004084481881383857,0.018149548964626082,0.03389311280204234
0.6458333333333334,0.004161024410639046,0.01837020702124557,0.034071922420169445
0.65,0.004238491198979757,0.018592029201770444,0.034250179632486846
0.6541666666666667,0.004316887081937309,0.018815011909812458,0.03442788374752825
0.6583333333333333,0.004396216880039315,0.01903915154448164,0.0346050341018735
0.6625,0.004476485398791686,0.019264444500568884,0.03478163005952621
0.6666666666666666,0.0045576974286613715,0.019490887168724477,0.034957671011305085
0.6708333333333333,0.004639857745059841,0.019718475935632696,0.035133156374246265
0.675,0.004722971108327268,0.019947207184182476,0.035308085591023414
0.6791666666666667,0.004807042263717411,0.020177077293634337,0.03548245812937366
0.6833333333333333,0.0048920759413831755,0.020408082639783543,0.03565627348154474
0.6875,0.0049780768563628406,0.020640219595119687,0.03582953116374681
0.6916666666666667,0.0050650497085669354,0.020873484528982692,0.036002230715620184
0.6958333333333333,0.00515299918276575,0.021107873807715345,0.03617437169971477
0.7,0.0052419299485774685,0.02134338379481246,0.036345953700978414
0.7041666666666666,0.0053318466604569134,0.021580010851066686,0.036516976326260456
0.7083333333333334,0.0054227539576848765,0.021817751334711106,0.0366874392038224
0.7125,0.005514656464358038,0.02205660160155863,0.03685734198286111
0.7166666666666667,0.0056075587893794476,0.022296558005138297,0.03702668433304372
0.7208333333333333,0.005701465526449566,0.02253761689682854,0.037195465944050245
0.725,0.005796381254057847,0.02277977462598748,0.037363686525128156
0.7291666666666666,0.005892310535474849,0.02302302754008033,0.0375313458046557
0.7333333333333333,0.005989257918744865,0.023267371984803928,0.03769844352971525
0.7375,0.006087227936679067,0.02351280430420851,0.03786497946567744
0.7416666666666667,0.006186225106849137,0.023759320840816788,0.0380309533957903
0.7458333333333333,0.006286253931581389,0.024006917935740325,0.03819636512078281
0.75,0.006387318897951361,0.024255591928793344,0.03836121445847396
0.7541666666666667,0.006489424477778878,0.024505339158604002,0.03852550124339054
0.7583333333333333,0.006592575127623557,0.024756155962723157,0.038689225326394176
0.7625,0.006696775288780769,0.025008038677730708,0.03885238657431624
0.7666666666666666,0.006802029387278017,0.02526098363933958,0.03901498486960092
0.7708333333333334,0.0069083418338717565,0.025514987182497353,0.039177020109956696
0.775,0.007015717024044613,0.025770045641485655,0.03933849220801275
0.7791666666666667,0.0071241593380030185,0.02602615535001729,0.039499401090987526
0.7833333333333333,0.007233673140675232,0.02628331264133123,0.03965974670036138
0.7875,0.007344262781709755,0.02654151384828545,0.03981952899155635
0.7916666666666666,0.007455932595474121,0.026800755303447714,0.03997874793362503
0.7958333333333333,0.007568686901054055,0.027061033339184297,0.040137403508943695
0.8,0.007682530002253,0.027322344287746745,0.040295495712914534
0.8041666666666667,0.007797466187591986,0.027584684481356665,0.04045302455367234
0.8083333333333333,0.007913499730309855,0.027848050252288623,0.04060999005180098
0.8125,0.008030634888363818,0.028112437932951203,0.04076639224005155
0.8166666666666667,0.008148875904430345,0.0283778438559662,0.04092223116307023
0.8208333333333333,0.00826822700590637,0.028644264354246086,0.041077506877130174
0.825,0.008388692404910827,0.028911695761069688,0.041232219449870926
0.8291666666666666,0.008510276298286478,0.02918013441015619,0.04138636896004229
0.8333333333333334,0.00863298286760205,0.02944957663573748,0.04153995549725414
0.8375,0.00875681627915467,0.029720018772628837,0.041692979161731196
0.8416666666666667,0.008881780683972579,0.02999145715629804,0.041845440064075444
0.8458333333333333,0.009007880217818133,0.03026388812293294,0.04199733832503018
0.85,0.00913511900119108,0.030537308009507474,0.04214867407525346
0.8541666666666666,0.009263501139332107,0.030811713153846215,0.04229944745509279
0.8583333333333333,0.009393030722226638,0.031087099894687453,0.042449658614365206
0.8624999999999999,0.009523711824608908,0.031363464571744853,0.04259930771214553
0.8666666666666667,0.009655548505966274,0.03164080352576772,0.04274839491655592
0.8708333333333333,0.009788544810543774,0.03191911309859991,0.04289692040455995
0.875,0.00992270476734893,0.03219838963323737,0.043044884361764305
0.8791666666666667,0.010058032390156782,0.03247862947388444,0.04319228698222139
0.8833333333333333,0.010194531677515151,0.032759828966008805,0.043339128468238675
0.8875,0.010332206612750132,0.033041984456395265,0.04348540903019081
0.8916666666666666,0.010471061163971791,0.03332509229319824,0.04363112888633586
0.8958333333333334,0.010611099284080095,0.0336091488259931,0.04377628826263734
0.9,0.010752324910771037,0.03389415040582633,0.0439208873925863
0.9041666666666667,0.010894741966542974,0.034180093385264544,0.04406492651703285
0.9083333333333333,0.01103835435870315,0.03446697411844238,0.04420840588401684
0.9125,0.01118316597937444,0.03475478896110932,0.04435132574860391
0.9166666666666666,0.011329180705502253,0.03504353427067543,0.04449368637272451
0.9208333333333333,0.011476402398861654,0.03533320640625604,0.04463548802501817
0.9249999999999999,0.011624834906064635,0.03562380172871546,0.044776730980678914
0.9291666666666667,0.011774482058567593,0.035915316600709596,0.04491741552130503
0.9333333333333333,0.011925347672678959,0.03620774738672769,0.04505754193475224
0.9375,0.012077435549567013,0.03650109045313304,0.045197110514990674
0.9416666666666667,0.012230749475267857,0.03679534216820281,0.04533612156196411
0.9458333333333333,0.012385293220693552,0.03709049890216691,0.045474575381451804
0.95,0.012541070541640411,0.037386557027246026,0.04561247228493412
0.9541666666666666,0.012698085178797447,0.03768351291768868,0.045749812589461855
0.9583333333333334,0.012856340857754979,0.037981362949807536,0.0458865966175276
0.9625,0.013015841289013374,0.03828010350201482,0.04602282469693718
0.9666666666666667,0.013176590167991945,0.03857973095485691,0.04615849716069004
0.9708333333333333,0.01333859117503798,0.03888024169104813,0.04629361434685851
0.975,0.013501847975435912,0.03918163209550382,0.0464281765984666
0.9791666666666666,0.013666364219416631,0.03948389855537252,0.046562184263378784
0.9833333333333333,0.013832143542166912,0.03978703746006754,0.04669563769418432
0.9874999999999999,0.013999189563838985,0.04009104520129765,0.04682853724808901
0.9916666666666667,0.014167505889560223,0.04039591817309722,0.04696088328680724
0.9958333333333333,0.014337096109442954,0.0407016527718555,0.04709267617645291
1.0,0.014507963798594392,0.0410082453963453,0.047223916287442436
1.0041666666666667,0.014680112517126689,0.041315692447751,0.04735460399438908
1.0083333333333333,0.014853545810167089,0.04162399032969584,0.047484739676004556
1.0125,0.015028267207868208,0.04193313544826866,0.04761432371500508
1.0166666666666666,0.015204280225418417,0.04224312421204993,0.04774335649801459
1.0208333333333333,0.015381588363052322,0.042553953032137194,0.047871838415472046
1.025,0.015560195106061363,0.04286561832216991,0.04799976986154321
1.0291666666666666,0.015740103924804506,0.04317811649835373,0.04812715123402911
1.0333333333333332,0.015921318274719022,0.043491443979484144,0.04825398293428142
1.0375,0.016103841596331395,0.043805597186969615,0.04838026536712084
1.0416666666666667,0.016287677315268288,0.044120572544854145,0.04850599894074378
1.0458333333333334,0.01647282884226762,0.044436366479839264,0.04863118406665423
1.05,0.016659299573189724,0.04475297542130556,0.04875582115957797
1.0541666666666667,0.016847092889028616,0.045070395801333665,0.048879910637383395
1.0583333333333333,0.0170362121559233,0.0453886240547247,0.0490034529210103
